1.886000,3.967000
1.886000,3.892000
1.886000,3.826000
1.886000,3.778000
1.885000,3.740000
1.885000,3.741000
1.885000,3.787000
1.885000,3.878000
1.885000,3.981000
1.885000,4.076000
1.885000,4.149000
1.885000,4.175000
1.885000,4.190000
1.885000,4.253000
1.885000,4.375000
1.885000,4.526000
1.885000,4.664000
1.885000,4.677000
1.885000,4.581000
1.885000,4.525000
1.885000,4.511000
1.885000,4.463000
1.884000,4.425000
1.884000,4.425000
1.884000,4.317000
1.884000,4.122000
1.884000,3.991000
1.884000,3.924000
1.884000,3.847000
1.884000,3.788000
1.884000,3.763000
1.884000,3.773000
1.883000,3.839000
1.883000,3.945000
1.883000,4.052000
1.883000,4.166000
1.883000,4.274000
1.883000,4.344000
1.883000,4.399000
1.883000,4.485000
1.882000,4.597000
1.882000,4.675000
1.882000,4.726000
1.883000,4.751000
1.882000,4.663000
1.882000,4.471000
1.882000,4.287000
1.882000,4.114000
1.882000,3.946000
1.882000,3.857000
1.882000,3.836000
1.882000,3.830000
1.882000,3.828000
1.883000,3.827000
1.883000,3.826000
1.883000,3.825000
1.882000,3.822000
1.882000,3.818000
1.882000,3.812000
1.882000,3.805000
1.881000,3.799000
1.882000,3.794000
1.881000,3.791000
1.881000,3.789000
1.881000,3.789000
1.881000,3.794000
1.881000,3.955000
1.881000,6.710000
1.881000,13.340000
1.882000,20.521000
1.882000,27.468000
1.882000,32.978000
1.882000,34.375000
1.882000,31.739000
1.881000,28.566000
1.881000,25.447000
1.881000,23.302000
1.881000,22.629000
1.881000,21.962000
1.881000,20.300000
1.881000,18.417000
1.882000,16.887000
1.882000,14.625000
1.882000,12.300000
1.882000,10.915000
1.882000,9.945000
1.882000,8.962000
1.882000,8.750000
1.881000,8.713000
1.882000,8.540000
1.882000,7.933000
1.882000,6.956000
1.882000,5.968000
1.882000,5.013000
1.882000,4.232000
1.882000,3.873000
1.882000,3.877000
1.882000,3.957000
1.882000,4.510000
1.882000,6.057000
1.882000,8.519000
1.882000,10.211000
1.883000,10.619000
1.883000,10.242000
1.883000,8.750000
1.883000,6.418000
1.883000,4.825000
1.883000,4.417000
1.883000,4.312000
1.883000,4.326000
1.883000,4.256000
1.883000,4.193000
1.883000,4.169000
1.882000,4.131000
1.882000,4.056000
1.882000,3.972000
1.882000,3.884000
1.882000,3.809000
1.881000,3.778000
1.882000,3.794000
1.881000,3.811000
1.882000,3.817000
1.882000,3.826000
1.882000,3.851000
1.882000,3.879000
1.882000,3.892000
1.882000,3.879000
1.882000,3.839000
1.882000,3.776000
1.882000,3.896000
1.881000,4.323000
1.881000,4.858000
1.881000,5.404000
1.881000,5.958000
1.881000,6.211000
1.882000,5.959000
1.882000,5.489000
1.882000,4.991000
1.883000,4.533000
1.883000,4.194000
1.883000,4.694000
1.883000,5.345000
1.883000,5.376000
1.884000,5.338000
1.884000,5.288000
1.885000,4.623000
1.886000,3.961000
1.887000,3.970000
1.887000,3.975000
1.888000,3.960000
1.888000,3.937000
1.889000,3.892000
1.889000,3.818000
1.889000,3.767000
1.889000,3.787000
1.890000,3.868000
1.890000,3.992000
1.890000,4.144000
1.890000,4.256000
1.890000,4.246000
1.889000,4.147000
1.889000,4.011000
1.889000,3.852000
1.889000,3.725000
1.889000,3.667000
1.889000,3.641000
1.889000,3.631000
1.889000,3.629000
1.889000,3.634000
1.888000,3.640000
1.888000,3.647000
1.887000,3.649000
1.887000,3.640000
1.886000,4.305000
1.886000,5.022000
1.886000,5.196000
1.886000,5.182000
1.886000,5.175000
1.887000,4.516000
1.887000,3.833000
1.887000,4.771000
1.887000,5.892000
1.887000,5.912000
1.887000,5.901000
1.886000,5.861000
1.886000,4.746000
1.886000,3.652000
1.886000,3.669000
1.886000,3.681000
1.886000,3.667000
1.885000,3.639000
1.885000,3.601000
1.884000,3.564000
1.884000,3.550000
1.884000,3.559000
1.884000,3.572000
1.883000,3.580000
1.883000,3.586000
1.883000,3.587000
1.883000,3.588000
1.882000,3.587000
1.882000,3.588000
1.882000,3.585000
1.882000,3.572000
1.882000,3.565000
1.882000,3.570000
1.881000,3.580000
1.881000,3.588000
1.881000,3.598000
1.881000,3.611000
1.881000,3.619000
1.881000,3.622000
1.881000,3.621000
1.881000,3.616000
1.881000,3.607000
1.881000,3.600000
1.881000,3.591000
1.881000,3.585000
1.881000,3.580000
1.881000,3.576000
1.880000,3.570000
1.881000,3.564000
1.880000,3.557000
1.881000,3.550000
1.881000,3.544000
1.881000,3.539000
1.881000,3.535000
1.881000,3.535000
1.880000,3.535000
1.881000,3.537000
1.881000,3.538000
1.881000,3.542000
1.881000,3.545000
1.880000,3.549000
1.880000,3.552000
1.880000,3.555000
1.880000,3.557000
1.880000,3.558000
1.880000,3.558000
1.880000,3.558000
1.880000,3.560000
1.880000,3.562000
1.880000,3.566000
1.880000,3.570000
1.879000,3.574000
1.879000,3.577000
1.879000,3.577000
1.879000,3.575000
1.879000,3.574000
1.879000,3.574000
1.879000,3.576000
1.878000,3.583000
1.878000,3.606000
1.879000,3.637000
1.879000,3.659000
1.880000,3.674000
1.880000,3.679000
1.881000,3.664000
1.881000,3.637000
1.881000,3.616000
1.881000,3.599000
1.881000,3.587000
1.881000,3.580000
1.881000,3.575000
1.881000,3.571000
1.881000,3.568000
1.881000,3.565000
1.882000,3.562000
1.881000,3.559000
1.881000,3.557000
1.881000,3.555000
1.881000,3.556000
1.881000,3.556000
1.881000,3.557000
1.881000,3.559000
1.881000,3.560000
1.880000,3.562000
1.880000,3.566000
1.880000,3.569000
1.880000,3.573000
1.879000,3.576000
1.879000,3.577000
1.879000,3.577000
1.879000,3.574000
1.879000,3.571000
1.880000,3.569000
1.880000,3.569000
1.880000,3.578000
1.880000,3.655000
1.880000,5.131000
1.880000,7.506000
1.881000,8.491000
1.881000,8.526000
1.881000,8.491000
1.881000,8.430000
1.880000,7.644000
1.880000,8.062000
1.880000,10.421000
1.881000,11.519000
1.882000,10.233000
1.883000,8.667000
1.885000,7.306000
1.887000,4.956000
1.889000,3.832000
1.892000,3.706000
1.894000,3.673000
1.897000,3.634000
1.900000,3.598000
1.902000,3.588000
1.905000,3.594000
1.907000,3.658000
1.909000,3.718000
1.910000,3.723000
1.912000,3.730000
1.913000,3.732000
1.914000,3.684000
1.914000,3.625000
1.915000,3.609000
1.916000,3.597000
1.916000,3.583000
1.916000,3.569000
1.916000,3.563000
1.915000,3.571000
1.914000,3.588000
1.913000,3.601000
1.912000,3.610000
1.911000,3.608000
1.910000,3.595000
1.909000,3.576000
1.909000,3.557000
1.908000,3.539000
1.908000,3.527000
1.907000,3.517000
1.907000,3.509000
1.906000,3.514000
1.906000,3.524000
1.906000,3.528000
1.905000,3.535000
1.905000,3.550000
1.905000,3.584000
1.904000,3.656000
1.904000,3.755000
1.903000,3.857000
1.902000,3.944000
1.902000,3.997000
1.901000,4.003000
1.901000,3.979000
1.901000,3.942000
1.901000,3.908000
1.901000,3.883000
1.900000,3.867000
1.901000,3.857000
1.900000,3.847000
1.900000,3.834000
1.898000,3.822000
1.897000,3.876000
1.896000,4.001000
1.896000,4.131000
1.896000,4.251000
1.896000,4.349000
1.896000,4.371000
1.896000,4.314000
1.896000,4.252000
1.896000,4.207000
1.896000,4.184000
1.896000,4.176000
1.896000,4.134000
1.896000,4.197000
1.895000,7.488000
1.895000,12.348000
1.894000,13.626000
1.893000,13.611000
1.893000,13.480000
1.892000,10.114000
1.891000,5.176000
1.891000,3.814000
1.891000,3.789000
1.892000,3.776000
1.892000,3.770000
1.892000,3.766000
1.892000,3.764000
1.892000,3.755000
1.892000,3.718000
1.892000,3.662000
1.891000,3.603000
1.891000,3.544000
1.891000,3.491000
1.890000,3.465000
1.890000,3.460000
1.890000,3.458000
1.890000,3.458000
1.890000,3.462000
1.890000,3.481000
1.889000,3.519000
1.889000,3.564000
1.889000,3.607000
1.890000,3.647000
1.890000,3.671000
1.890000,3.677000
1.890000,3.675000
1.889000,3.669000
1.889000,3.657000
1.889000,3.637000
1.889000,3.612000
1.888000,3.586000
1.888000,3.562000
1.888000,3.545000
1.888000,3.534000
1.888000,3.528000
1.888000,3.548000
1.887000,5.964000
1.887000,12.022000
1.887000,16.612000
1.887000,17.628000
1.887000,17.643000
1.888000,15.272000
1.888000,9.259000
1.888000,4.716000
1.888000,3.749000
1.887000,3.750000
1.887000,3.732000
1.887000,3.710000
1.887000,3.686000
1.887000,3.661000
1.887000,3.643000
1.886000,3.639000
1.886000,3.651000
1.886000,4.433000
1.885000,6.927000
1.885000,8.564000
1.885000,8.583000
1.885000,8.560000
1.885000,7.758000
1.886000,5.242000
1.885000,3.583000
1.885000,3.541000
1.885000,3.528000
1.885000,3.525000
1.885000,3.524000
1.885000,3.523000
1.885000,3.521000
1.885000,3.520000
1.885000,3.519000
1.885000,3.518000
1.885000,3.517000
1.885000,3.516000
1.885000,3.513000
1.885000,3.508000
1.885000,3.502000
1.884000,3.497000
1.884000,3.491000
1.884000,3.485000
1.884000,3.481000
1.884000,3.477000
1.884000,3.471000
1.884000,3.464000
1.884000,3.456000
1.884000,3.449000
1.884000,3.442000
1.884000,3.439000
1.884000,3.439000
1.884000,3.440000
1.884000,3.443000
1.884000,3.452000
1.884000,3.470000
1.884000,3.487000
1.884000,3.499000
1.884000,3.507000
1.884000,3.504000
1.884000,3.489000
1.884000,3.473000
1.885000,3.473000
1.885000,3.486000
1.886000,3.508000
1.887000,3.552000
1.889000,3.598000
1.891000,3.606000
1.893000,3.591000
1.895000,3.579000
1.899000,3.545000
1.903000,3.532000
1.906000,3.577000
1.910000,3.675000
1.915000,3.752000
1.919000,3.804000
1.923000,3.843000
1.927000,3.865000
1.931000,3.838000
1.935000,3.816000
1.937000,3.833000
1.938000,3.855000
1.939000,3.864000
1.939000,3.874000
1.938000,3.872000
1.936000,3.839000
1.934000,3.817000
1.931000,3.788000
1.929000,3.735000
1.927000,3.702000
1.925000,3.673000
1.924000,3.616000
1.923000,3.565000
1.922000,3.549000
1.921000,3.587000
1.920000,3.649000
1.919000,3.674000
1.918000,3.681000
1.918000,3.680000
1.917000,3.629000
1.916000,3.564000
1.915000,3.538000
1.914000,3.528000
1.913000,3.520000
1.913000,3.516000
1.912000,3.514000
1.912000,3.513000
1.911000,3.514000
1.911000,3.515000
1.910000,3.515000
1.910000,3.514000
1.909000,3.513000
1.909000,3.513000
1.909000,3.514000
1.909000,3.514000
1.909000,3.513000
1.909000,3.510000
1.909000,3.507000
1.909000,3.500000
1.909000,3.490000
1.909000,3.481000
1.908000,3.472000
1.908000,3.464000
1.907000,3.460000
1.907000,3.459000
1.906000,3.459000
1.905000,3.458000
1.904000,3.454000
1.903000,3.449000
1.902000,3.443000
1.902000,3.440000
1.902000,3.439000
1.901000,3.442000
1.901000,3.448000
1.901000,3.453000
1.901000,3.456000
1.901000,3.457000
1.901000,3.457000
1.900000,3.455000
1.900000,3.451000
1.900000,3.445000
1.900000,3.440000
1.901000,3.436000
1.901000,3.432000
1.901000,3.430000
1.901000,3.427000
1.901000,3.424000
1.901000,3.422000
1.900000,3.420000
1.900000,3.418000
1.899000,3.417000
1.899000,3.416000
1.898000,3.414000
1.898000,3.413000
1.897000,3.413000
1.897000,3.414000
1.897000,3.416000
1.896000,3.421000
1.896000,3.428000
1.896000,3.435000
1.896000,3.442000
1.896000,3.447000
1.896000,3.450000
1.896000,3.453000
1.895000,3.456000
1.895000,3.460000
1.895000,3.463000
1.895000,3.465000
1.895000,3.465000
1.894000,3.463000
1.894000,3.459000
1.894000,3.455000
1.894000,3.451000
1.894000,3.448000
1.894000,3.446000
1.893000,3.444000
1.893000,3.442000
1.892000,3.441000
1.892000,3.440000
1.892000,3.438000
1.892000,3.437000
1.892000,3.435000
1.892000,3.432000
1.892000,3.430000
1.892000,3.428000
1.892000,3.427000
1.892000,3.425000
1.891000,3.424000
1.891000,3.423000
1.892000,3.422000
1.891000,3.421000
1.891000,3.421000
1.891000,3.420000
1.891000,3.419000
1.891000,3.418000
1.891000,3.417000
1.891000,3.415000
1.891000,3.413000
1.891000,3.411000
1.891000,3.408000
1.891000,3.405000
1.891000,3.402000
1.891000,3.399000
1.890000,3.397000
1.890000,3.395000
1.890000,3.393000
1.890000,3.391000
1.890000,3.389000
1.890000,3.387000
1.890000,3.385000
1.890000,3.383000
1.890000,3.381000
1.890000,3.379000
1.890000,3.377000
1.889000,3.375000
1.889000,3.374000
1.889000,3.373000
1.889000,3.371000
1.888000,3.370000
1.888000,3.369000
1.888000,3.368000
1.888000,3.367000
1.888000,3.366000
1.888000,3.366000
1.888000,3.365000
1.889000,3.365000
1.889000,3.364000
1.889000,3.363000
1.888000,3.363000
1.888000,3.362000
1.888000,3.361000
1.888000,3.361000
1.888000,3.362000
1.889000,3.367000
1.889000,3.376000
1.889000,3.388000
1.890000,3.402000
1.891000,3.415000
1.892000,3.426000
1.893000,3.437000
1.894000,3.449000
1.896000,3.462000
1.897000,3.479000
1.899000,3.494000
1.901000,3.503000
1.903000,3.505000
1.905000,3.504000
1.906000,3.497000
1.907000,3.501000
1.908000,3.521000
1.909000,3.571000
1.909000,3.652000
1.909000,3.727000
1.909000,3.765000
1.908000,3.780000
1.907000,3.762000
1.907000,3.699000
1.906000,3.627000
1.905000,3.574000
1.905000,3.528000
1.904000,3.493000
1.904000,3.477000
1.903000,3.478000
1.903000,3.484000
1.902000,3.489000
1.901000,3.486000
1.900000,3.475000
1.899000,3.460000
1.899000,3.445000
1.898000,3.433000
1.897000,3.425000
1.897000,3.420000
1.897000,3.417000
1.897000,3.416000
1.896000,3.414000
1.896000,3.412000
1.896000,3.409000
1.896000,3.405000
1.896000,3.402000
1.896000,3.398000
1.895000,3.395000
1.895000,3.393000
1.895000,3.391000
1.894000,3.390000
1.894000,3.390000
1.894000,3.389000
1.893000,3.388000
1.893000,3.388000
1.893000,3.387000
1.893000,3.388000
1.892000,3.390000
1.892000,3.394000
1.892000,3.399000
1.891000,3.403000
1.891000,3.404000
1.890000,3.403000
1.889000,3.401000
1.889000,3.399000
1.889000,3.399000
1.889000,3.401000
1.890000,3.401000
1.890000,3.400000
1.890000,3.398000
1.890000,3.394000
1.890000,3.390000
1.890000,3.388000
1.890000,3.386000
1.889000,3.385000
1.889000,3.384000
1.889000,3.384000
1.889000,3.383000
1.890000,3.382000
1.889000,3.382000
1.889000,3.380000
1.888000,3.379000
1.888000,3.379000
1.888000,3.379000
1.888000,3.379000
1.888000,3.380000
1.888000,3.382000
1.888000,3.385000
1.887000,3.389000
1.887000,3.391000
1.887000,3.393000
1.887000,3.394000
1.887000,3.393000
1.888000,3.391000
1.888000,3.391000
1.888000,3.390000
1.888000,3.388000
1.887000,3.385000
1.887000,3.382000
1.887000,3.378000
1.886000,3.376000
1.885000,3.374000
1.885000,3.374000
1.884000,3.374000
1.883000,3.375000
1.883000,3.375000
1.882000,3.376000
1.883000,3.376000
1.883000,3.377000
1.883000,3.377000
1.884000,3.377000
1.884000,3.376000
1.885000,3.376000
1.885000,3.376000
1.885000,3.376000
1.885000,3.377000
1.885000,3.378000
1.884000,3.378000
1.884000,3.378000
1.884000,3.380000
1.884000,3.382000
1.884000,3.385000
1.884000,3.387000
1.884000,3.389000
1.884000,3.389000
1.884000,3.387000
1.884000,3.384000
1.884000,3.382000
1.884000,3.378000
1.884000,3.375000
1.883000,3.373000
1.883000,3.371000
1.883000,3.370000
1.883000,3.369000
1.883000,3.368000
1.883000,3.367000
1.883000,3.366000
1.883000,3.366000
1.883000,3.365000
1.883000,3.364000
1.883000,3.364000
1.883000,3.363000
1.882000,3.362000
1.882000,3.360000
1.882000,3.359000
1.882000,3.357000
1.882000,3.356000
1.883000,3.355000
1.883000,3.353000
1.883000,3.352000
1.883000,3.351000
1.883000,3.351000
1.883000,3.350000
1.882000,3.349000
1.883000,3.349000
1.882000,3.349000
1.882000,3.348000
1.882000,3.348000
1.882000,3.347000
1.881000,3.347000
1.881000,3.346000
1.881000,3.346000
1.881000,3.346000
1.882000,3.346000
1.882000,3.346000
1.881000,3.347000
1.882000,3.347000
1.882000,3.347000
1.882000,3.346000
1.882000,3.344000
1.882000,3.343000
1.882000,3.342000
1.882000,3.341000
1.882000,3.341000
1.883000,3.341000
1.883000,3.341000
1.884000,3.341000
1.884000,3.343000
1.885000,3.347000
1.885000,3.352000
1.885000,3.357000
1.885000,3.363000
1.886000,3.372000
1.886000,3.383000
1.887000,3.397000
1.889000,3.413000
1.890000,3.426000
1.891000,3.435000
1.893000,3.438000
1.893000,3.434000
1.894000,3.426000
1.894000,3.421000
1.895000,3.417000
1.895000,3.413000
1.895000,3.411000
1.895000,3.410000
1.896000,3.406000
1.896000,3.399000
1.897000,3.393000
1.897000,3.387000
1.898000,3.382000
1.898000,3.381000
1.898000,3.383000
1.898000,3.384000
1.898000,3.385000
1.898000,3.386000
1.897000,3.385000
1.896000,3.384000
1.896000,3.385000
1.895000,3.387000
1.895000,3.390000
1.895000,3.393000
1.895000,3.395000
1.894000,3.395000
1.894000,3.397000
1.894000,3.399000
1.894000,3.402000
1.893000,3.403000
1.893000,3.403000
1.893000,3.402000
1.892000,3.400000
1.891000,3.397000
1.891000,3.396000
1.890000,3.395000
1.890000,3.396000
1.889000,3.396000
1.889000,3.396000
1.889000,3.397000
1.888000,3.397000
1.888000,3.396000
1.888000,3.395000
1.887000,3.393000
1.887000,3.392000
1.887000,3.391000
1.887000,3.391000
1.887000,3.390000
1.887000,3.391000
1.886000,3.391000
1.886000,3.392000
1.885000,3.393000
1.885000,3.393000
1.884000,3.393000
1.884000,3.392000
1.883000,3.391000
1.882000,3.391000
1.882000,3.392000
1.882000,3.396000
1.882000,3.400000
1.882000,3.404000
1.882000,3.407000
1.882000,3.411000
1.882000,3.415000
1.882000,3.418000
1.881000,3.417000
1.881000,3.414000
1.881000,3.408000
1.881000,3.401000
1.881000,3.396000
1.881000,3.393000
1.881000,3.392000
1.881000,3.393000
1.881000,3.395000
1.881000,3.398000
1.880000,3.400000
1.881000,3.401000
1.881000,3.400000
1.882000,3.400000
1.882000,3.399000
1.882000,3.398000
1.883000,3.398000
1.883000,3.398000
1.883000,3.396000
1.883000,3.394000
1.883000,3.391000
1.883000,3.390000
1.882000,3.391000
1.882000,3.394000
1.881000,3.397000
1.881000,3.399000
1.881000,3.401000
1.881000,3.401000
1.881000,3.399000
1.881000,3.398000
1.881000,3.396000
1.881000,3.395000
1.881000,3.394000
1.881000,3.394000
1.880000,3.393000
1.880000,3.392000
1.880000,3.391000
1.880000,3.390000
1.880000,3.389000
1.880000,3.389000
1.879000,3.388000
1.879000,3.388000
1.879000,3.387000
1.879000,3.386000
1.879000,3.385000
1.880000,3.385000
1.880000,3.383000
1.880000,3.383000
1.880000,3.382000
1.880000,3.381000
1.880000,3.380000
1.880000,3.379000
1.880000,3.377000
1.880000,3.377000
1.880000,3.376000
1.880000,3.376000
1.880000,3.375000
1.880000,3.375000
1.880000,3.375000
1.880000,3.375000
1.879000,3.374000
1.879000,3.373000
1.879000,3.372000
1.879000,3.371000
1.879000,3.370000
1.879000,3.370000
1.879000,3.369000
1.879000,3.368000
1.879000,3.367000
1.879000,3.366000
1.879000,3.365000
1.879000,3.364000
1.878000,3.363000
1.879000,3.361000
1.879000,3.360000
1.879000,3.359000
1.879000,3.358000
1.878000,3.357000
1.878000,3.356000
1.878000,3.356000
1.878000,3.355000
1.879000,3.353000
1.880000,3.352000
1.880000,3.351000
1.880000,3.350000
1.880000,3.350000
1.880000,3.350000
1.880000,3.351000
1.880000,3.352000
1.880000,3.353000
1.880000,3.354000
1.880000,3.355000
1.879000,3.355000
1.879000,3.354000
1.879000,3.353000
1.879000,3.351000
1.878000,3.349000
1.879000,3.349000
1.879000,3.353000
1.879000,3.361000
1.879000,3.369000
1.879000,3.375000
1.879000,3.383000
1.880000,3.386000
1.880000,3.384000
1.880000,3.385000
1.881000,3.390000
1.882000,3.396000
1.883000,3.414000
1.885000,3.496000
1.886000,3.601000
1.888000,3.650000
1.890000,3.663000
1.892000,3.666000
1.893000,3.609000
1.895000,3.525000
1.897000,3.485000
1.898000,3.475000
1.900000,3.464000
1.903000,3.447000
1.905000,3.432000
1.908000,3.427000
1.911000,3.429000
1.913000,3.435000
1.915000,3.447000
1.916000,3.467000
1.917000,3.477000
1.918000,3.476000
1.918000,3.470000
1.919000,3.459000
1.919000,3.442000
1.919000,3.433000
1.919000,3.430000
1.919000,3.427000
1.919000,3.425000
1.919000,3.423000
1.918000,3.422000
1.918000,3.421000
1.917000,3.418000
1.917000,3.418000
1.916000,3.419000
1.916000,3.418000
1.915000,3.421000
1.914000,3.426000
1.913000,3.428000
1.913000,3.429000
1.912000,3.428000
1.911000,3.424000
1.910000,3.418000
1.909000,3.413000
1.907000,3.408000
1.906000,3.405000
1.905000,3.402000
1.905000,3.399000
1.904000,3.397000
1.904000,3.395000
1.903000,3.395000
1.903000,3.396000
1.903000,3.399000
1.902000,3.402000
1.902000,3.404000
1.901000,3.409000
1.900000,3.414000
1.900000,3.418000
1.899000,3.421000
1.898000,3.425000
1.898000,3.428000
1.898000,3.433000
1.898000,3.442000
1.897000,3.453000
1.897000,3.460000
1.897000,3.466000
1.897000,3.469000
1.898000,3.466000
1.898000,3.462000
1.897000,3.459000
1.897000,3.456000
1.896000,3.451000
1.895000,3.443000
1.895000,3.435000
1.894000,3.427000
1.894000,3.420000
1.894000,3.415000
1.893000,3.416000
1.893000,3.418000
1.893000,3.421000
1.892000,3.423000
1.892000,3.423000
1.892000,3.423000
1.892000,3.424000
1.892000,3.423000
1.892000,3.425000
1.892000,3.428000
1.892000,3.433000
1.892000,3.436000
1.892000,3.437000
1.891000,3.433000
1.891000,3.428000
1.891000,3.422000
1.890000,3.417000
1.890000,3.414000
1.890000,3.416000
1.890000,3.417000
1.889000,3.418000
1.889000,3.417000
1.889000,3.416000
1.889000,3.414000
1.888000,3.412000
1.887000,3.410000
1.887000,3.408000
1.886000,3.406000
1.886000,3.405000
1.886000,3.404000
1.886000,3.403000
1.886000,3.402000
1.886000,3.401000
1.886000,3.400000
1.885000,3.400000
1.885000,3.399000
1.885000,3.398000
1.885000,3.397000
1.884000,3.397000
1.884000,3.396000
1.884000,3.395000
1.884000,3.394000
1.884000,3.394000
1.883000,3.393000
1.883000,3.392000
1.883000,3.391000
1.884000,3.390000
1.884000,3.389000
1.884000,3.388000
1.884000,3.386000
1.884000,3.385000
1.883000,3.384000
1.883000,3.384000
1.883000,3.383000
1.883000,3.383000
1.882000,3.382000
1.883000,3.382000
1.883000,3.381000
1.883000,3.381000
1.882000,3.380000
1.882000,3.380000
1.882000,3.378000
1.882000,3.377000
1.881000,3.377000
1.881000,3.381000
1.880000,3.389000
1.880000,3.396000
1.880000,3.401000
1.881000,3.404000
1.881000,3.403000
1.881000,3.399000
1.881000,3.395000
1.881000,3.394000
1.881000,3.393000
1.881000,3.391000
1.881000,3.390000
1.881000,3.389000
1.881000,3.388000
1.881000,3.387000
1.881000,3.386000
1.881000,3.385000
1.880000,3.383000
1.881000,3.383000
1.881000,3.382000
1.881000,3.381000
1.880000,3.380000
1.880000,3.379000
1.879000,3.378000
1.879000,3.377000
1.879000,3.376000
1.879000,3.375000
1.879000,3.375000
1.879000,3.374000
1.879000,3.374000
1.879000,3.374000
1.879000,3.373000
1.879000,3.373000
1.879000,3.373000
1.879000,3.373000
1.879000,3.372000
1.879000,3.373000
1.879000,3.372000
1.879000,3.373000
1.879000,3.372000
1.879000,3.372000
1.879000,3.371000
1.879000,3.371000
1.878000,3.370000
1.878000,3.370000
1.878000,3.370000
1.878000,3.370000
1.878000,3.370000
1.878000,3.370000
1.878000,3.369000
1.878000,3.369000
1.878000,3.368000
1.878000,3.369000
1.878000,3.368000
1.879000,3.368000
1.879000,3.367000
1.878000,3.367000
1.878000,3.366000
1.878000,3.367000
1.878000,3.366000
1.878000,3.366000
1.878000,3.366000
1.878000,3.367000
1.878000,3.366000
1.878000,3.367000
1.878000,3.366000
1.878000,3.366000
1.877000,3.366000
1.877000,3.365000
1.877000,3.365000
1.878000,3.365000
1.878000,3.365000
1.878000,3.365000
1.878000,3.366000
1.878000,3.368000
1.878000,3.368000
1.878000,3.370000
1.877000,3.370000
1.877000,3.370000
1.877000,3.370000
1.877000,3.370000
1.877000,3.369000
1.878000,3.368000
1.877000,3.366000
1.877000,3.365000
1.877000,3.364000
1.878000,3.364000
1.878000,3.366000
1.878000,3.369000
1.878000,3.372000
1.879000,3.374000
1.879000,3.373000
1.880000,3.372000
1.880000,3.370000
1.880000,3.369000
1.880000,3.369000
1.881000,3.372000
1.881000,3.377000
1.882000,3.384000
1.882000,3.390000
1.882000,3.397000
1.882000,3.403000
1.882000,3.405000
1.882000,3.404000
1.882000,3.402000
1.882000,3.400000
1.882000,3.398000
1.882000,3.396000
1.882000,3.394000
1.882000,3.393000
1.882000,3.391000
1.882000,3.390000
1.881000,3.389000
1.881000,3.388000
1.881000,3.387000
1.881000,3.386000
1.881000,3.385000
1.881000,3.384000
1.881000,3.383000
1.880000,3.383000
1.880000,3.383000
1.879000,3.382000
1.879000,3.382000
1.879000,3.382000
1.879000,3.382000
1.879000,3.382000
1.879000,3.382000
1.879000,3.382000
1.879000,3.382000
1.879000,3.381000
1.880000,3.381000
1.880000,3.380000
1.880000,3.379000
1.880000,3.379000
1.880000,3.378000
1.879000,3.379000
1.879000,3.379000
1.878000,3.378000
1.878000,3.379000
1.878000,3.378000
1.878000,3.378000
1.878000,3.377000
1.878000,3.376000
1.878000,3.375000
1.878000,3.376000
1.878000,3.376000
1.878000,3.376000
1.878000,3.376000
1.878000,3.376000
1.878000,3.375000
1.879000,3.375000
1.879000,3.374000
1.879000,3.375000
1.879000,3.375000
1.878000,3.376000
1.878000,3.378000
1.877000,3.380000
1.877000,3.382000
1.877000,3.383000
1.876000,3.381000
1.876000,3.378000
1.876000,3.375000
1.876000,3.372000
1.876000,3.369000
1.876000,3.367000
1.876000,3.366000
1.876000,3.365000
1.876000,3.364000
1.876000,3.362000
1.876000,3.360000
1.876000,3.359000
1.875000,3.357000
1.876000,3.355000
1.875000,3.355000
1.875000,3.356000
1.875000,3.358000
1.875000,3.360000
1.875000,3.363000
1.875000,3.365000
1.875000,3.367000
1.875000,3.369000
1.875000,3.370000
1.875000,3.371000
1.875000,3.372000
1.875000,3.372000
1.874000,3.371000
1.874000,3.371000
1.874000,3.370000
1.874000,3.369000
1.874000,3.368000
1.874000,3.366000
1.874000,3.364000
1.874000,3.363000
1.874000,3.361000
1.874000,3.361000
1.873000,3.360000
1.873000,3.360000
1.873000,3.358000
1.873000,3.357000
1.873000,3.355000
1.874000,3.354000
1.873000,3.353000
1.873000,3.352000
1.873000,3.351000
1.874000,3.351000
1.874000,3.350000
1.874000,3.351000
1.874000,3.351000
1.874000,3.351000
1.875000,3.351000
1.875000,3.351000
1.875000,3.351000
1.876000,3.351000
1.876000,3.350000
1.876000,3.350000
1.876000,3.349000
1.877000,3.348000
1.876000,3.348000
1.876000,3.348000
1.876000,3.347000
1.876000,3.347000
1.876000,3.347000
1.876000,3.347000
1.876000,3.346000
1.875000,3.346000
1.875000,3.345000
1.875000,3.345000
1.875000,3.345000
1.875000,3.345000
1.875000,3.345000
1.874000,3.345000
1.874000,3.344000
1.874000,3.344000
1.874000,3.343000
1.874000,3.343000
1.874000,3.342000
1.874000,3.341000
1.873000,3.340000
1.873000,3.340000
1.873000,3.339000
1.873000,3.338000
1.873000,3.337000
1.873000,3.336000
1.873000,3.335000
1.874000,3.335000
1.874000,3.335000
1.874000,3.335000
1.874000,3.335000
1.874000,3.335000
1.874000,3.334000
1.874000,3.335000
1.873000,3.335000
1.873000,3.335000
1.873000,3.335000
1.873000,3.335000
1.873000,3.334000
1.873000,3.333000
1.873000,3.333000
1.873000,3.333000
1.873000,3.332000
1.873000,3.332000
1.873000,3.332000
1.873000,3.332000
1.873000,3.331000
1.873000,3.330000
1.873000,3.330000
1.874000,3.330000
1.874000,3.330000
1.875000,3.330000
1.875000,3.330000
1.875000,3.330000
1.876000,3.330000
1.876000,3.331000
1.877000,3.334000
1.878000,3.341000
1.879000,3.351000
1.880000,3.367000
1.881000,3.384000
1.882000,3.402000
1.883000,3.421000
1.884000,3.448000
1.885000,3.525000
1.886000,3.632000
1.886000,3.705000
1.887000,3.728000
1.888000,3.715000
1.889000,3.645000
1.891000,3.538000
1.893000,3.465000
1.895000,3.444000
1.897000,3.446000
1.900000,3.453000
1.902000,3.467000
1.904000,3.489000
1.906000,3.515000
1.907000,3.545000
1.908000,3.573000
1.908000,3.580000
1.909000,3.561000
1.909000,3.527000
1.909000,3.486000
1.908000,3.445000
1.908000,3.421000
1.907000,3.417000
1.906000,3.420000
1.905000,3.426000
1.904000,3.437000
1.903000,3.447000
1.902000,3.451000
1.900000,3.463000
1.899000,3.522000
1.897000,3.625000
1.896000,3.725000
1.895000,3.811000
1.894000,3.851000
1.893000,3.818000
1.892000,3.732000
1.891000,3.646000
1.891000,3.578000
1.891000,3.545000
1.891000,3.542000
1.891000,3.568000
1.891000,3.601000
1.890000,3.602000
1.890000,3.587000
1.889000,3.563000
1.889000,3.512000
1.888000,3.456000
1.888000,3.429000
1.888000,3.420000
1.888000,3.416000
1.888000,3.417000
1.887000,3.420000
1.887000,3.423000
1.887000,3.423000
1.886000,3.420000
1.886000,3.419000
1.886000,3.417000
1.886000,3.415000
1.885000,3.416000
1.885000,3.420000
1.885000,3.425000
1.885000,3.434000
1.884000,3.444000
1.884000,3.457000
1.884000,3.463000
1.884000,3.464000
1.883000,3.460000
1.883000,3.457000
1.883000,3.454000
1.883000,3.455000
1.882000,3.461000
1.882000,3.473000
1.882000,3.486000
1.882000,3.494000
1.882000,3.495000
1.883000,3.493000
1.883000,3.484000
1.883000,3.469000
1.884000,3.460000
1.884000,3.460000
1.885000,3.458000
1.885000,3.456000
1.886000,3.456000
1.887000,3.453000
1.888000,3.448000
1.889000,3.448000
1.890000,3.451000
1.890000,3.459000
1.891000,3.468000
1.891000,3.476000
1.891000,3.492000
1.892000,3.530000
1.893000,3.573000
1.894000,3.621000
1.894000,3.687000
1.895000,3.739000
1.895000,3.755000
1.896000,3.761000
1.896000,3.760000
1.896000,3.764000
1.896000,3.795000
1.896000,3.847000
1.896000,3.901000
1.896000,3.956000
1.896000,3.991000
1.896000,4.006000
1.896000,4.012000
1.896000,4.021000
1.896000,4.029000
1.896000,4.035000
1.896000,4.042000
1.896000,4.051000
1.895000,4.062000
1.895000,4.072000
1.895000,4.082000
1.895000,4.089000
1.895000,4.094000
1.895000,4.101000
1.895000,4.109000
1.894000,4.120000
1.894000,4.133000
1.894000,4.147000
1.894000,4.157000
1.893000,4.166000
1.893000,4.171000
1.893000,4.174000
1.893000,4.173000
1.893000,4.173000
1.893000,4.172000
1.893000,4.170000
1.893000,4.167000
1.893000,4.165000
1.893000,4.163000
1.893000,4.162000
1.893000,4.159000
1.893000,4.155000
1.893000,4.146000
1.892000,4.136000
1.892000,4.125000
1.892000,4.114000
1.892000,4.105000
1.893000,4.099000
1.892000,4.094000
1.892000,4.091000
1.892000,4.089000
1.892000,4.088000
1.891000,4.089000
1.892000,4.091000
1.891000,4.094000
1.892000,4.097000
1.892000,4.095000
1.892000,4.088000
1.892000,4.076000
1.892000,4.062000
1.892000,4.050000
1.892000,4.044000
1.891000,4.039000
1.891000,4.033000
1.891000,4.030000
1.892000,4.031000
1.892000,4.049000
1.892000,4.111000
1.892000,4.202000
1.892000,4.304000
1.892000,4.400000
1.892000,4.929000
1.892000,6.243000
1.892000,9.297000
1.892000,12.347000
1.892000,13.493000
1.891000,13.456000
1.892000,12.152000
1.892000,9.009000
1.892000,5.795000
1.893000,4.454000
1.893000,3.835000
1.893000,3.658000
1.893000,3.553000
1.893000,3.513000
1.893000,3.523000
1.893000,3.559000
1.893000,3.586000
1.893000,3.607000
1.894000,3.622000
1.894000,3.612000
1.894000,3.585000
1.894000,3.565000
1.894000,3.550000
1.894000,3.540000
1.894000,3.540000
1.894000,3.561000
1.895000,3.602000
1.895000,3.648000
1.895000,3.695000
1.895000,3.730000
1.895000,3.738000
1.894000,3.724000
1.894000,3.706000
1.894000,3.687000
1.894000,3.675000
1.893000,3.668000
1.893000,3.660000
1.893000,3.647000
1.893000,3.629000
1.893000,3.612000
1.893000,3.593000
1.893000,3.573000
1.893000,3.558000
1.892000,3.547000
1.892000,3.538000
1.892000,3.531000
1.892000,3.526000
1.892000,3.517000
1.892000,3.503000
1.891000,3.485000
1.891000,3.466000
1.890000,3.450000
1.890000,3.439000
1.890000,3.432000
1.890000,3.429000
1.889000,3.427000
1.889000,3.424000
1.888000,3.420000
1.888000,3.417000
1.887000,3.416000
1.887000,3.421000
1.886000,3.430000
1.887000,3.441000
1.886000,3.455000
1.886000,3.470000
1.886000,3.480000
1.885000,3.485000
1.885000,3.488000
1.885000,3.485000
1.884000,3.474000
1.884000,3.463000
1.883000,3.453000
1.883000,3.445000
1.882000,3.440000
1.882000,3.440000
1.881000,3.442000
1.881000,3.441000
1.880000,3.440000
1.880000,3.439000
1.880000,3.436000
1.880000,3.434000
1.879000,3.432000
1.879000,3.431000
1.879000,3.427000
1.879000,3.423000
1.878000,3.418000
1.878000,3.414000
1.877000,3.409000
1.877000,3.404000
1.877000,3.400000
1.878000,3.397000
1.878000,3.394000
1.879000,3.392000
1.879000,3.390000
1.879000,3.388000
1.879000,3.385000
1.879000,3.383000
1.878000,3.381000
1.878000,3.378000
1.878000,3.377000
1.878000,3.376000
1.878000,3.375000
1.878000,3.375000
1.878000,3.374000
1.878000,3.373000
1.878000,3.373000
1.878000,3.372000
1.877000,3.372000
1.877000,3.371000
1.877000,3.371000
1.877000,3.370000
1.877000,3.369000
1.877000,3.369000
1.877000,3.367000
1.877000,3.366000
1.877000,3.365000
1.877000,3.363000
1.876000,3.362000
1.876000,3.361000
1.876000,3.361000
1.876000,3.362000
1.875000,3.362000
1.876000,3.363000
1.875000,3.364000
1.875000,3.365000
1.875000,3.367000
1.875000,3.369000
1.875000,3.371000
1.875000,3.377000
1.874000,3.384000
1.874000,3.390000
1.874000,3.396000
1.874000,3.404000
1.873000,3.414000
1.874000,3.422000
1.873000,3.429000
1.873000,3.438000
1.873000,3.442000
1.873000,3.442000
1.873000,3.440000
1.873000,3.439000
1.872000,3.436000
1.873000,3.435000
1.872000,3.434000
1.873000,3.433000
1.873000,3.432000
1.873000,3.431000
1.873000,3.428000
1.872000,3.425000
1.872000,3.420000
1.872000,3.416000
1.872000,3.412000
1.872000,3.409000
1.871000,3.407000
1.871000,3.406000
1.871000,3.404000
1.871000,3.402000
1.871000,3.400000
1.872000,3.399000
1.872000,3.397000
1.872000,3.396000
1.873000,3.395000
1.874000,3.394000
1.874000,3.394000
1.875000,3.394000
1.875000,3.394000
1.875000,3.393000
1.875000,3.390000
1.876000,3.389000
1.876000,3.386000
1.876000,3.384000
1.876000,3.381000
1.876000,3.378000
1.877000,3.375000
1.877000,3.375000
1.877000,3.377000
1.878000,3.383000
1.878000,3.391000
1.880000,3.403000
1.882000,3.422000
1.885000,3.441000
1.888000,3.461000
1.891000,3.481000
1.893000,3.491000
1.895000,3.488000
1.896000,3.480000
1.897000,3.474000
1.899000,3.480000
1.901000,3.507000
1.902000,3.556000
1.904000,3.606000
1.906000,3.643000
1.909000,3.729000
1.911000,4.198000
1.914000,4.665000
1.917000,4.875000
1.919000,7.691000
1.921000,12.543000
1.922000,19.129000
1.923000,35.241000
1.925000,44.916468
1.925000,44.916468
1.926000,44.916468
1.925000,44.212000
1.926000,27.621000
1.926000,14.992000
1.926000,8.454000
1.926000,4.544000
1.926000,3.625000
1.925000,3.656000
1.925000,3.785000
1.924000,3.912000
1.924000,3.940000
1.923000,3.943000
1.923000,3.918000
1.923000,3.794000
1.923000,3.749000
1.922000,3.894000
1.922000,5.762000
1.921000,11.749000
1.921000,15.637000
1.921000,15.982000
1.921000,15.902000
1.920000,14.074000
1.919000,8.108000
1.918000,4.242000
1.917000,3.858000
1.916000,4.333000
1.916000,5.743000
1.915000,6.776000
1.915000,6.808000
1.914000,6.805000
1.913000,6.276000
1.913000,4.846000
1.913000,3.781000
1.912000,3.700000
1.913000,3.633000
1.912000,3.562000
1.912000,3.502000
1.911000,3.485000
1.911000,3.491000
1.910000,3.494000
1.909000,3.507000
1.908000,3.552000
1.907000,3.597000
1.906000,3.608000
1.905000,3.669000
1.904000,3.761000
1.904000,3.807000
1.903000,3.809000
1.902000,3.820000
1.901000,3.781000
1.900000,3.690000
1.900000,3.612000
1.899000,3.561000
1.898000,3.528000
1.898000,3.508000
1.897000,3.510000
1.897000,3.526000
1.897000,3.583000
1.897000,3.656000
1.897000,3.695000
1.897000,3.711000
1.897000,3.706000
1.897000,3.653000
1.897000,3.589000
1.897000,3.561000
1.897000,3.555000
1.897000,3.565000
1.898000,3.584000
1.898000,3.602000
1.898000,3.642000
1.898000,3.689000
1.898000,3.705000
1.898000,3.704000
1.898000,3.705000
1.899000,3.681000
1.899000,3.682000
1.899000,3.764000
1.900000,3.875000
1.900000,3.987000
1.900000,4.098000
1.900000,4.168000
1.901000,4.169000
1.902000,4.143000
1.903000,4.081000
1.904000,3.998000
1.905000,3.943000
1.906000,3.914000
1.907000,3.921000
1.908000,3.988000
1.909000,4.090000
1.909000,4.181000
1.910000,4.269000
1.910000,4.340000
1.911000,4.394000
1.912000,4.488000
1.912000,5.988000
1.913000,13.233000
1.913000,23.964000
1.913000,27.941000
1.914000,28.043000
1.914000,30.197000
1.915000,33.303000
1.916000,28.095000
1.916000,24.717000
1.916000,24.844000
1.916000,21.270000
1.916000,10.944000
1.916000,5.411000
1.915000,4.789000
1.915000,4.473000
1.914000,4.369000
1.914000,4.300000
1.913000,4.260000
1.912000,4.228000
1.911000,4.204000
1.911000,4.188000
1.910000,4.158000
1.909000,4.089000
1.909000,4.024000
1.908000,3.984000
1.908000,3.973000
1.907000,3.985000
1.907000,4.025000
1.907000,4.069000
1.906000,4.093000
1.906000,4.096000
1.906000,4.109000
1.905000,4.130000
1.904000,4.137000
1.903000,4.129000
1.903000,4.121000
1.902000,4.117000
1.901000,4.112000
1.901000,4.107000
1.901000,4.112000
1.900000,4.114000
1.900000,4.099000
1.900000,4.064000
1.900000,4.024000
1.899000,3.991000
1.898000,3.953000
1.898000,3.911000
1.898000,3.874000
1.898000,3.829000
1.898000,3.774000
1.898000,3.723000
1.898000,3.681000
1.897000,3.655000
1.897000,3.642000
1.897000,3.634000
1.897000,3.630000
1.897000,3.627000
1.897000,3.624000
1.897000,3.623000
1.897000,3.622000
1.897000,3.620000
1.897000,3.618000
1.896000,3.616000
1.896000,3.611000
1.896000,3.603000
1.895000,3.598000
1.894000,3.590000
1.894000,3.572000
1.894000,3.552000
1.894000,3.536000
1.893000,3.526000
1.892000,3.526000
1.891000,3.535000
1.891000,3.550000
1.890000,3.569000
1.890000,3.582000
1.890000,3.579000
1.890000,3.570000
1.890000,3.561000
1.890000,3.547000
1.889000,3.526000
1.889000,3.508000
1.889000,3.493000
1.889000,3.478000
1.889000,3.463000
1.889000,3.450000
1.889000,3.443000
1.889000,3.439000
1.889000,3.436000
1.889000,3.433000
1.889000,3.430000
1.889000,3.427000
1.889000,3.424000
1.889000,3.421000
1.889000,3.419000
1.889000,3.417000
1.889000,3.415000
1.889000,3.412000
1.889000,3.409000
1.889000,3.407000
1.888000,3.404000
1.888000,3.401000
1.888000,3.398000
1.888000,3.396000
1.888000,3.395000
1.887000,3.393000
1.887000,3.393000
1.887000,3.393000
1.887000,3.392000
1.887000,3.392000
1.887000,3.392000
1.886000,3.392000
1.886000,3.391000
1.886000,3.390000
1.886000,3.389000
1.886000,3.389000
1.886000,3.389000
1.886000,3.388000
1.886000,3.387000
1.886000,3.387000
1.885000,3.387000
1.885000,3.389000
1.885000,3.392000
1.885000,3.398000
1.885000,3.408000
1.885000,3.435000
1.885000,3.475000
1.885000,3.521000
1.886000,3.580000
1.886000,3.645000
1.887000,3.711000
1.888000,3.783000
1.889000,3.855000
1.890000,3.918000
1.892000,3.958000
1.893000,3.952000
1.894000,3.918000
1.895000,3.882000
1.896000,3.844000
1.896000,3.837000
1.897000,3.882000
1.897000,3.963000
1.898000,4.047000
1.898000,4.132000
1.898000,4.195000
1.898000,4.227000
1.898000,4.230000
1.898000,4.221000
1.898000,4.206000
1.898000,4.189000
1.897000,4.172000
1.897000,4.149000
1.897000,4.088000
1.897000,3.993000
1.897000,3.919000
1.897000,3.879000
1.896000,3.860000
1.896000,3.886000
1.896000,3.953000
1.896000,4.004000
1.895000,4.024000
1.895000,4.032000
1.894000,4.034000
1.894000,4.034000
1.893000,4.008000
1.893000,3.952000
1.892000,3.906000
1.892000,3.887000
