1.879000,3.918000
1.877000,3.955000
1.875000,3.993000
1.873000,4.031000
1.870000,4.069000
1.871000,4.069000
1.871000,4.069000
1.870000,4.069000
1.870000,4.069000
1.870000,4.069000
1.870000,4.069000
1.870000,4.069000
1.870000,4.069000
1.870000,4.068000
1.871000,4.068000
1.871000,4.067000
1.871000,4.067000
1.871000,4.067000
1.871000,4.066000
1.871000,4.066000
1.871000,4.066000
1.871000,4.066000
1.871000,4.066000
1.871000,4.066000
1.871000,4.066000
1.871000,4.065000
1.871000,4.065000
1.871000,4.064000
1.871000,4.063000
1.871000,4.063000
1.871000,4.062000
1.870000,4.062000
1.870000,4.062000
1.870000,4.062000
1.870000,4.062000
1.870000,4.061000
1.870000,4.061000
1.871000,4.060000
1.870000,4.059000
1.870000,4.059000
1.870000,4.058000
1.870000,4.058000
1.870000,4.057000
1.871000,4.056000
1.870000,4.055000
1.871000,4.054000
1.871000,4.053000
1.871000,4.053000
1.870000,4.052000
1.870000,4.052000
1.870000,4.051000
1.870000,4.051000
1.870000,4.051000
1.870000,4.051000
1.870000,4.051000
1.870000,4.051000
1.870000,4.051000
1.870000,4.051000
1.870000,4.051000
1.870000,4.051000
1.870000,4.051000
1.870000,4.051000
1.870000,4.050000
1.871000,4.050000
1.870000,4.050000
1.870000,4.050000
1.870000,4.050000
1.870000,4.050000
1.870000,4.050000
1.870000,4.050000
1.871000,4.050000
1.871000,4.050000
1.870000,4.049000
1.870000,4.049000
1.870000,4.049000
1.870000,4.049000
1.870000,4.048000
1.871000,4.048000
1.871000,4.048000
1.871000,4.049000
1.870000,4.049000
1.870000,4.050000
1.870000,4.050000
1.870000,4.051000
1.870000,4.052000
1.870000,4.052000
1.870000,4.052000
1.870000,4.053000
1.870000,4.054000
1.870000,4.055000
1.870000,4.056000
1.870000,4.058000
1.870000,4.059000
1.870000,4.061000
1.870000,4.063000
1.870000,4.066000
1.870000,4.067000
1.870000,4.068000
1.870000,4.066000
1.870000,4.064000
1.870000,4.059000
1.870000,4.053000
1.870000,4.048000
1.870000,4.041000
1.870000,4.036000
1.870000,4.038000
1.870000,4.042000
1.870000,4.046000
1.870000,4.054000
1.870000,4.060000
1.870000,4.061000
1.870000,4.062000
1.870000,4.063000
1.870000,4.064000
1.869000,4.065000
1.869000,4.065000
1.869000,4.063000
1.869000,4.062000
1.869000,4.061000
1.869000,4.060000
1.869000,4.058000
1.869000,4.057000
1.870000,4.054000
1.870000,4.051000
1.870000,4.048000
1.870000,4.045000
1.870000,4.042000
1.870000,4.041000
1.870000,4.040000
1.870000,4.040000
1.870000,4.039000
1.870000,4.039000
1.869000,4.038000
1.870000,4.038000
1.869000,4.037000
1.869000,4.036000
1.869000,4.035000
1.869000,4.035000
1.869000,4.034000
1.869000,4.033000
1.869000,4.031000
1.869000,4.031000
1.869000,4.030000
1.869000,4.029000
1.869000,4.029000
1.869000,4.029000
1.869000,4.029000
1.870000,4.029000
1.870000,4.029000
1.870000,4.029000
1.870000,4.029000
1.870000,4.030000
1.869000,4.030000
1.869000,4.032000
1.869000,4.032000
1.870000,4.033000
1.870000,4.033000
1.870000,4.034000
1.869000,4.034000
1.869000,4.035000
1.869000,4.036000
1.869000,4.037000
1.869000,4.037000
1.869000,4.039000
1.869000,4.041000
1.869000,4.043000
1.869000,4.045000
1.870000,4.046000
1.870000,4.047000
1.870000,4.046000
1.870000,4.045000
1.870000,4.044000
1.870000,4.043000
1.870000,4.043000
1.870000,4.043000
1.870000,4.042000
1.869000,4.042000
1.869000,4.042000
1.869000,4.041000
1.869000,4.040000
1.869000,4.039000
1.869000,4.038000
1.869000,4.037000
1.869000,4.036000
1.869000,4.035000
1.869000,4.035000
1.869000,4.034000
1.869000,4.034000
1.869000,4.035000
1.869000,4.038000
1.869000,4.042000
1.870000,4.046000
1.869000,4.048000
1.869000,4.048000
1.869000,4.045000
1.869000,4.042000
1.869000,4.039000
1.869000,4.038000
1.869000,4.040000
1.869000,4.048000
1.869000,4.064000
1.870000,4.142000
1.870000,5.729000
1.870000,12.603000
1.870000,19.236000
1.870000,21.162000
1.870000,21.122000
1.870000,19.580000
1.870000,12.775000
1.870000,7.470000
1.870000,8.081000
1.870000,10.652000
1.869000,14.105000
1.869000,16.221000
1.869000,15.274000
1.869000,13.051000
1.869000,10.492000
1.869000,7.016000
1.869000,4.849000
1.870000,4.481000
1.870000,4.170000
1.870000,4.134000
1.870000,4.126000
1.869000,4.119000
1.869000,4.111000
1.869000,4.105000
1.869000,4.101000
1.869000,4.099000
1.869000,4.096000
1.869000,4.095000
1.869000,4.093000
1.869000,4.092000
1.869000,4.090000
1.869000,4.089000
1.869000,4.088000
1.869000,4.086000
1.869000,4.084000
1.869000,4.081000
1.869000,4.077000
1.869000,4.074000
1.869000,4.071000
1.869000,4.069000
1.869000,4.069000
1.869000,4.069000
1.869000,4.068000
1.869000,4.067000
1.869000,4.067000
1.869000,4.067000
1.869000,4.067000
1.870000,4.068000
1.869000,4.072000
1.870000,4.076000
1.870000,4.078000
1.870000,4.080000
1.871000,4.078000
1.872000,4.077000
1.872000,4.077000
1.873000,4.084000
1.874000,4.097000
1.875000,4.138000
1.875000,7.218000
1.876000,11.705000
1.876000,14.164000
1.876000,16.477000
1.876000,18.718000
1.877000,18.904000
1.877000,19.712000
1.877000,22.848000
1.877000,23.118000
1.878000,21.204000
1.878000,18.053000
1.878000,13.062000
1.878000,7.771000
1.878000,5.294000
1.878000,5.032000
1.877000,5.015000
1.877000,4.797000
1.877000,4.557000
1.876000,4.499000
1.876000,4.468000
1.876000,4.451000
1.875000,4.440000
1.875000,4.450000
1.875000,4.482000
1.874000,4.525000
1.874000,4.771000
1.874000,9.295000
1.874000,13.799000
1.874000,14.126000
1.873000,14.133000
1.873000,13.915000
1.873000,9.425000
1.872000,4.950000
1.872000,4.626000
1.872000,4.573000
1.872000,4.521000
1.872000,4.461000
1.872000,4.396000
1.872000,4.341000
1.872000,4.309000
1.872000,4.287000
1.872000,4.266000
1.872000,4.250000
1.872000,4.238000
1.872000,4.227000
1.872000,4.218000
1.872000,4.209000
1.872000,4.200000
1.871000,4.191000
1.871000,4.185000
1.871000,4.180000
1.871000,4.175000
1.871000,4.171000
1.872000,4.168000
1.871000,4.164000
1.871000,4.161000
1.871000,4.158000
1.871000,4.156000
1.871000,4.153000
1.871000,4.152000
1.871000,4.149000
1.871000,4.148000
1.871000,4.146000
1.871000,4.145000
1.871000,4.143000
1.871000,4.142000
1.871000,4.141000
1.871000,4.140000
1.870000,4.138000
1.870000,4.138000
1.870000,4.137000
1.870000,4.137000
1.870000,4.136000
1.870000,4.135000
1.870000,4.135000
1.870000,4.134000
1.870000,4.132000
1.870000,4.131000
1.870000,4.129000
1.870000,4.127000
1.870000,4.125000
1.870000,4.123000
1.869000,4.121000
1.869000,4.120000
1.869000,4.118000
1.869000,4.117000
1.869000,4.116000
1.869000,4.116000
1.869000,4.115000
1.869000,4.115000
1.869000,4.113000
1.869000,4.110000
1.869000,4.107000
1.869000,4.104000
1.869000,4.101000
1.869000,4.099000
1.869000,4.097000
1.869000,4.096000
1.869000,4.094000
1.870000,4.093000
1.870000,4.092000
1.870000,4.091000
1.870000,4.090000
1.870000,4.088000
1.870000,4.087000
1.870000,4.086000
1.869000,4.084000
1.869000,4.083000
1.869000,4.082000
1.869000,4.080000
1.868000,4.079000
1.868000,4.078000
1.868000,4.076000
1.869000,4.075000
1.869000,4.074000
1.869000,4.074000
1.869000,4.073000
1.869000,4.073000
1.868000,4.072000
1.868000,4.071000
1.868000,4.070000
1.868000,4.070000
1.869000,4.069000
1.869000,4.068000
1.869000,4.068000
1.869000,4.068000
1.869000,4.067000
1.869000,4.067000
1.869000,4.067000
1.869000,4.067000
1.869000,4.066000
1.869000,4.066000
1.868000,4.066000
1.868000,4.066000
1.868000,4.065000
1.868000,4.066000
1.868000,4.065000
1.868000,4.065000
1.868000,4.064000
1.868000,4.063000
1.868000,4.061000
1.868000,4.060000
1.868000,4.059000
1.868000,4.058000
1.868000,4.057000
1.868000,4.057000
1.868000,4.056000
1.868000,4.055000
1.868000,4.055000
1.868000,4.055000
1.868000,4.054000
1.868000,4.053000
1.868000,4.052000
1.868000,4.052000
1.868000,4.050000
1.868000,4.049000
1.868000,4.048000
1.868000,4.047000
1.868000,4.046000
1.868000,4.046000
1.868000,4.046000
1.868000,4.049000
1.868000,4.052000
1.868000,4.057000
1.868000,4.058000
1.868000,4.056000
1.869000,4.050000
1.869000,4.041000
1.869000,4.031000
1.869000,4.022000
1.869000,4.015000
1.869000,4.009000
1.868000,4.005000
1.868000,4.002000
1.868000,3.999000
1.868000,3.997000
1.868000,3.994000
1.868000,3.992000
1.868000,3.989000
1.868000,3.988000
1.868000,3.986000
1.868000,3.984000
1.867000,3.982000
1.867000,3.981000
1.867000,3.980000
1.867000,3.981000
1.868000,3.985000
1.868000,3.993000
1.868000,4.001000
1.868000,4.010000
1.868000,4.016000
1.868000,4.020000
1.868000,4.020000
1.868000,4.019000
1.868000,4.018000
1.868000,4.014000
1.868000,4.006000
1.868000,4.001000
1.868000,3.999000
1.869000,4.000000
1.869000,4.005000
1.869000,4.015000
1.870000,4.023000
1.870000,4.030000
1.870000,4.037000
1.870000,4.044000
1.870000,4.047000
1.870000,4.048000
1.870000,4.044000
1.870000,4.043000
1.870000,4.295000
1.870000,6.554000
1.870000,9.335000
1.870000,10.531000
1.869000,10.872000
1.869000,10.874000
1.869000,8.766000
1.869000,6.089000
1.869000,4.984000
1.869000,4.709000
1.869000,4.489000
1.869000,4.360000
1.869000,4.275000
1.869000,4.201000
1.869000,4.146000
1.869000,4.118000
1.869000,4.102000
1.870000,4.093000
1.870000,4.088000
1.870000,4.087000
1.871000,4.089000
1.871000,4.095000
1.871000,4.107000
1.872000,4.116000
1.872000,4.115000
1.872000,4.111000
1.872000,4.112000
1.872000,4.120000
1.872000,4.126000
1.872000,4.144000
1.872000,4.256000
1.872000,4.921000
1.871000,12.166000
1.871000,19.413000
1.871000,20.545000
1.870000,20.453000
1.870000,19.799000
1.869000,12.551000
1.869000,5.301000
1.869000,4.169000
1.868000,6.098000
1.868000,12.229000
1.868000,16.469000
1.868000,17.203000
1.868000,17.890000
1.868000,15.946000
1.868000,9.800000
1.869000,5.546000
1.869000,4.806000
1.870000,4.111000
1.871000,4.117000
1.872000,4.121000
1.873000,4.125000
1.873000,4.124000
1.873000,4.119000
1.874000,4.114000
1.873000,4.110000
1.874000,4.107000
1.874000,4.103000
1.874000,4.100000
1.874000,4.099000
1.874000,4.098000
1.873000,4.097000
1.873000,4.099000
1.873000,4.100000
1.873000,4.100000
1.872000,4.100000
1.872000,4.096000
1.871000,4.092000
1.871000,4.090000
1.870000,4.087000
1.870000,4.077000
1.869000,4.067000
1.869000,4.057000
1.869000,4.048000
1.869000,4.055000
1.869000,4.087000
1.869000,4.128000
1.869000,4.170000
1.869000,4.205000
1.869000,4.211000
1.869000,4.188000
1.869000,4.154000
1.869000,4.119000
1.868000,4.085000
1.868000,4.063000
1.868000,4.051000
1.868000,4.043000
1.868000,4.035000
1.868000,4.030000
1.868000,4.027000
1.868000,4.026000
1.868000,4.026000
1.868000,4.030000
1.868000,4.052000
1.868000,4.086000
1.867000,4.115000
1.867000,4.138000
1.867000,4.151000
1.867000,4.146000
1.866000,4.131000
1.866000,4.119000
1.866000,4.111000
1.866000,4.110000
1.866000,4.108000
1.866000,4.104000
1.866000,4.101000
1.866000,4.099000
1.866000,4.094000
1.866000,4.091000
1.866000,4.089000
1.866000,4.089000
1.865000,4.097000
1.865000,4.114000
1.865000,4.131000
1.866000,4.146000
1.866000,4.156000
1.866000,4.156000
1.866000,4.149000
1.866000,4.142000
1.866000,4.137000
1.866000,4.136000
1.866000,4.137000
1.866000,4.135000
1.867000,4.129000
1.867000,4.123000
1.866000,4.117000
1.866000,4.111000
1.866000,4.106000
1.866000,4.103000
1.865000,4.100000
1.865000,4.097000
1.865000,4.094000
1.865000,4.092000
1.865000,4.090000
1.865000,4.088000
1.865000,4.087000
1.865000,4.087000
1.865000,4.087000
1.866000,4.088000
1.866000,4.090000
1.866000,4.092000
1.866000,4.093000
1.865000,4.094000
1.865000,4.094000
1.865000,4.096000
1.865000,4.100000
1.865000,4.108000
1.865000,4.118000
1.865000,4.130000
1.865000,4.143000
1.865000,4.154000
1.865000,4.164000
1.865000,4.172000
1.865000,4.172000
1.865000,4.162000
1.865000,4.145000
1.865000,4.129000
1.865000,4.125000
1.865000,4.142000
1.866000,4.175000
1.866000,4.212000
1.866000,4.236000
1.866000,4.232000
1.866000,4.200000
1.866000,4.159000
1.866000,4.116000
1.866000,4.084000
1.866000,4.067000
1.865000,4.059000
1.865000,4.053000
1.865000,4.049000
1.865000,4.044000
1.865000,4.041000
1.866000,4.038000
1.865000,4.036000
1.865000,4.033000
1.865000,4.030000
1.865000,4.028000
1.865000,4.026000
1.865000,4.023000
1.865000,4.022000
1.865000,4.020000
1.865000,4.018000
1.865000,4.016000
1.865000,4.015000
1.865000,4.014000
1.865000,4.013000
1.865000,4.012000
1.865000,4.010000
1.865000,4.009000
1.865000,4.007000
1.865000,4.005000
1.866000,4.003000
1.865000,4.001000
1.865000,4.003000
1.865000,4.011000
1.865000,4.021000
1.866000,4.032000
1.866000,4.044000
1.865000,4.051000
1.866000,4.052000
1.865000,4.050000
1.865000,4.048000
1.865000,4.044000
1.865000,4.036000
1.865000,4.026000
1.865000,4.016000
1.865000,4.004000
1.865000,3.995000
1.865000,3.990000
1.865000,3.987000
1.865000,3.985000
1.864000,3.984000
1.864000,3.983000
1.864000,3.982000
1.865000,3.981000
1.865000,3.980000
1.865000,3.979000
1.865000,3.978000
1.864000,3.977000
1.865000,3.976000
1.865000,3.975000
1.865000,3.974000
1.865000,3.974000
1.865000,3.974000
1.865000,3.975000
1.864000,3.976000
1.864000,3.976000
1.864000,3.976000
1.864000,3.977000
1.865000,3.978000
1.865000,3.979000
1.865000,3.982000
1.865000,3.986000
1.865000,3.992000
1.865000,3.998000
1.865000,4.003000
1.865000,4.008000
1.866000,4.012000
1.865000,4.014000
1.865000,4.015000
1.865000,4.015000
1.865000,4.015000
1.865000,4.014000
1.865000,4.013000
1.865000,4.011000
1.865000,4.010000
1.865000,4.009000
1.865000,4.008000
1.865000,4.007000
1.865000,4.007000
1.865000,4.005000
1.865000,4.002000
1.865000,3.998000
1.865000,3.996000
1.865000,3.996000
1.865000,3.998000
1.864000,4.003000
1.864000,4.008000
1.864000,4.011000
1.864000,4.012000
1.865000,4.011000
1.865000,4.009000
1.865000,4.006000
1.865000,3.998000
1.865000,3.987000
1.866000,3.976000
1.866000,3.966000
1.866000,3.961000
1.865000,3.961000
1.865000,3.965000
1.865000,3.965000
1.865000,3.963000
1.865000,3.957000
1.865000,3.949000
1.865000,3.943000
1.865000,3.938000
1.866000,3.936000
1.866000,3.935000
1.865000,3.934000
1.865000,3.933000
1.865000,3.932000
1.865000,3.931000
1.865000,3.931000
1.865000,3.930000
1.865000,3.930000
1.864000,3.930000
1.864000,3.930000
1.864000,3.930000
1.864000,3.930000
1.864000,3.931000
1.864000,3.934000
1.864000,3.938000
1.865000,3.941000
1.865000,3.943000
1.865000,3.944000
1.865000,3.942000
1.865000,3.938000
1.865000,3.935000
1.865000,3.933000
1.865000,3.932000
1.865000,3.931000
1.865000,3.931000
1.865000,3.930000
1.865000,3.930000
1.865000,3.930000
1.865000,3.929000
1.865000,3.929000
1.865000,3.928000
1.865000,3.928000
1.864000,3.928000
1.864000,3.927000
1.865000,3.927000
1.865000,3.926000
1.865000,3.926000
1.865000,3.925000
1.865000,3.926000
1.865000,3.925000
1.864000,3.925000
1.864000,3.926000
1.865000,3.931000
1.865000,3.937000
1.865000,3.941000
1.865000,3.945000
1.865000,3.946000
1.865000,3.944000
1.865000,3.940000
1.864000,3.939000
1.864000,3.939000
1.864000,3.940000
1.864000,3.941000
1.864000,3.941000
1.864000,3.939000
1.864000,3.936000
1.864000,3.931000
1.864000,3.926000
1.864000,3.921000
1.864000,3.916000
1.865000,3.910000
1.865000,3.905000
1.865000,3.904000
1.865000,4.036000
1.865000,4.836000
1.865000,5.710000
1.865000,6.195000
1.865000,6.387000
1.866000,6.366000
1.868000,5.719000
1.871000,6.507000
1.875000,11.380000
1.879000,15.609000
1.883000,17.577000
1.888000,19.749000
1.891000,20.096000
1.893000,15.759000
1.895000,11.763000
1.896000,10.133000
1.896000,8.306000
1.896000,7.941000
1.896000,8.581000
1.896000,9.395000
1.896000,10.376000
1.895000,10.886000
1.894000,9.981000
1.893000,8.495000
1.891000,7.328000
1.890000,5.963000
1.889000,5.016000
1.888000,4.337000
1.887000,4.226000
1.886000,4.223000
1.884000,4.231000
1.883000,4.238000
1.882000,4.246000
1.881000,4.341000
1.880000,6.550000
1.879000,8.737000
1.879000,8.766000
1.878000,8.771000
1.877000,8.684000
1.877000,6.472000
1.876000,4.277000
1.876000,4.243000
1.875000,4.231000
1.875000,4.219000
1.874000,4.211000
1.874000,4.688000
1.873000,5.155000
1.873000,5.133000
1.873000,5.120000
1.873000,5.109000
1.874000,4.611000
1.875000,4.117000
1.876000,4.869000
1.878000,5.849000
1.879000,6.270000
1.879000,6.434000
1.880000,6.654000
1.880000,6.181000
1.881000,5.504000
1.881000,5.353000
1.881000,5.391000
1.882000,5.324000
1.882000,5.164000
1.882000,4.954000
1.882000,4.759000
1.882000,4.632000
1.881000,4.563000
1.881000,4.501000
1.880000,4.420000
1.880000,4.338000
1.880000,4.264000
1.880000,4.187000
1.879000,4.134000
1.879000,4.114000
1.879000,4.101000
1.878000,4.079000
1.878000,4.056000
1.878000,4.034000
1.877000,4.014000
1.877000,4.001000
1.876000,3.993000
1.876000,3.986000
1.876000,3.979000
1.875000,3.975000
1.875000,3.971000
1.875000,3.969000
1.875000,3.968000
1.874000,3.969000
1.874000,3.975000
1.873000,4.072000
1.873000,4.412000
1.873000,6.047000
1.873000,7.789000
1.873000,8.462000
1.873000,8.722000
1.872000,8.501000
1.872000,6.953000
1.871000,5.267000
1.871000,4.649000
1.870000,4.346000
1.870000,4.271000
1.870000,4.223000
1.870000,4.209000
1.870000,4.193000
1.869000,4.182000
1.870000,4.189000
1.870000,4.212000
1.870000,4.236000
1.870000,4.253000
1.870000,4.267000
1.869000,4.271000
1.869000,4.259000
1.869000,4.241000
1.870000,4.227000
1.870000,4.220000
1.870000,4.219000
1.870000,4.220000
1.870000,4.222000
1.870000,4.228000
1.869000,4.232000
1.870000,4.230000
1.869000,4.231000
1.869000,4.239000
1.869000,4.264000
1.870000,4.314000
1.869000,4.388000
1.869000,4.476000
1.870000,4.572000
1.870000,4.665000
1.870000,4.763000
1.870000,4.897000
1.870000,5.074000
1.870000,5.273000
1.870000,5.465000
1.871000,5.670000
1.871000,5.877000
1.871000,6.024000
1.871000,6.135000
1.871000,6.290000
1.871000,6.449000
1.871000,6.541000
1.871000,6.639000
1.870000,6.762000
1.870000,6.916000
1.870000,7.045000
1.870000,7.153000
1.870000,7.234000
1.870000,7.196000
1.870000,7.043000
1.870000,6.875000
1.870000,6.701000
1.870000,6.551000
1.870000,6.497000
1.870000,6.475000
1.870000,6.440000
1.870000,6.447000
1.869000,6.453000
1.869000,6.415000
1.869000,6.304000
1.870000,6.116000
1.870000,5.842000
1.869000,5.528000
1.869000,5.235000
1.869000,5.000000
1.869000,4.826000
1.869000,4.715000
1.869000,4.637000
1.869000,4.572000
1.869000,4.516000
1.869000,4.486000
1.869000,4.538000
1.869000,7.501000
1.870000,10.621000
1.870000,11.004000
1.870000,11.249000
1.870000,11.440000
1.870000,8.720000
1.870000,5.821000
1.871000,5.620000
1.871000,5.533000
1.870000,5.432000
1.870000,5.332000
1.870000,5.225000
1.870000,5.113000
1.870000,4.996000
1.870000,4.871000
1.870000,4.747000
1.870000,4.654000
1.870000,4.602000
1.870000,4.572000
1.870000,4.542000
1.870000,4.502000
1.870000,4.455000
1.870000,4.410000
1.870000,4.368000
1.870000,4.332000
1.870000,4.310000
1.870000,4.300000
1.870000,4.293000
1.870000,4.287000
1.870000,4.282000
1.869000,4.280000
1.869000,4.278000
1.870000,4.275000
1.870000,4.271000
1.870000,4.267000
1.870000,4.262000
1.870000,4.256000
1.870000,4.251000
1.870000,4.246000
1.870000,4.241000
1.870000,4.235000
1.870000,4.229000
1.870000,4.223000
1.870000,4.214000
1.871000,4.204000
1.871000,4.192000
1.870000,4.178000
1.870000,4.162000
1.870000,4.148000
1.870000,4.133000
1.870000,4.120000
1.870000,4.108000
1.870000,4.098000
1.870000,4.089000
1.870000,4.083000
1.870000,4.078000
1.870000,4.073000
1.871000,4.070000
1.871000,4.067000
1.871000,4.064000
1.871000,4.061000
1.871000,4.058000
1.871000,4.055000
1.871000,4.053000
1.870000,4.050000
1.870000,4.048000
1.871000,4.046000
1.871000,4.044000
1.871000,4.042000
1.871000,4.041000
1.871000,4.040000
1.871000,4.038000
1.871000,4.037000
1.871000,4.036000
1.871000,4.035000
1.870000,4.034000
1.870000,4.032000
1.870000,4.029000
1.870000,4.025000
1.870000,4.019000
1.870000,4.014000
1.870000,4.009000
1.870000,4.004000
1.871000,4.002000
1.871000,4.000000
1.870000,3.998000
1.870000,3.997000
1.870000,3.996000
1.870000,3.995000
1.870000,3.994000
1.870000,3.992000
1.870000,3.992000
1.870000,3.991000
1.870000,3.990000
1.870000,3.989000
1.870000,3.989000
1.869000,3.989000
1.870000,3.988000
1.870000,3.988000
1.870000,3.987000
1.870000,3.985000
1.869000,3.983000
1.869000,3.981000
1.869000,3.978000
1.869000,3.975000
1.869000,3.974000
1.869000,3.973000
1.870000,3.973000
1.869000,3.974000
1.869000,3.974000
1.869000,3.971000
1.869000,3.967000
1.868000,3.963000
1.869000,3.959000
1.869000,3.956000
1.869000,3.956000
1.869000,3.959000
1.869000,3.963000
1.869000,3.965000
1.869000,3.968000
1.868000,3.969000
1.868000,3.968000
1.868000,3.966000
1.868000,3.966000
1.868000,3.969000
1.868000,3.972000
1.869000,3.974000
1.869000,3.976000
1.869000,3.976000
1.870000,3.975000
1.870000,3.974000
1.870000,3.975000
1.870000,3.975000
1.870000,3.975000
1.870000,3.976000
1.870000,3.976000
1.870000,3.975000
1.870000,3.973000
1.870000,3.972000
1.870000,3.969000
1.870000,3.965000
1.870000,3.960000
1.869000,3.954000
1.869000,3.948000
1.869000,3.946000
1.868000,3.953000
1.868000,3.968000
1.868000,3.987000
1.867000,4.011000
1.867000,4.035000
1.868000,4.052000
1.868000,4.063000
1.868000,4.070000
1.868000,4.072000
1.868000,4.069000
1.868000,4.065000
1.868000,4.060000
1.868000,4.056000
1.868000,4.055000
1.868000,4.052000
1.868000,4.046000
1.868000,4.041000
1.867000,4.036000
1.867000,4.036000
1.867000,4.043000
1.867000,4.080000
1.867000,4.139000
1.867000,4.174000
1.866000,4.172000
1.866000,4.167000
1.866000,4.642000
1.866000,5.125000
1.866000,5.175000
1.866000,5.190000
1.867000,5.200000
1.867000,4.707000
1.867000,4.183000
1.867000,4.112000
1.867000,4.105000
1.867000,4.095000
1.867000,4.082000
1.867000,4.070000
1.867000,4.058000
1.867000,4.050000
1.867000,4.047000
1.867000,4.046000
1.867000,4.041000
1.867000,4.031000
1.867000,4.021000
1.867000,4.006000
1.867000,3.987000
1.867000,3.970000
1.867000,3.959000
1.866000,3.950000
1.866000,3.945000
1.866000,3.945000
1.866000,3.947000
1.866000,3.948000
1.866000,3.948000
1.866000,3.947000
1.866000,3.944000
1.866000,3.940000
1.866000,3.938000
1.866000,3.937000
1.866000,3.936000
1.866000,3.938000
1.866000,3.942000
1.866000,3.944000
1.866000,3.944000
1.866000,3.944000
1.866000,3.941000
1.866000,3.938000
1.866000,3.936000
1.865000,3.936000
1.865000,3.937000
1.865000,3.940000
1.865000,3.944000
1.865000,3.954000
1.865000,3.966000
1.865000,3.973000
1.865000,3.975000
1.865000,3.975000
1.865000,3.967000
1.865000,3.957000
1.865000,3.952000
1.865000,3.950000
1.865000,3.948000
1.865000,3.947000
1.865000,3.946000
1.865000,3.944000
1.865000,3.941000
1.865000,3.938000
1.865000,3.935000
1.865000,3.933000
1.864000,3.932000
1.864000,3.932000
1.864000,3.932000
1.865000,3.932000
1.865000,3.933000
1.865000,3.933000
1.865000,3.933000
1.865000,3.932000
1.865000,3.932000
1.865000,3.931000
1.864000,3.930000
1.864000,3.929000
1.864000,3.927000
1.865000,3.926000
1.865000,3.924000
1.865000,3.923000
1.865000,3.922000
1.865000,3.921000
1.865000,3.920000
1.865000,3.919000
1.865000,3.919000
1.865000,3.919000
1.865000,3.918000
1.865000,3.918000
1.865000,3.917000
1.865000,3.917000
1.865000,3.916000
1.865000,3.915000
1.865000,3.915000
1.866000,3.914000
1.866000,3.913000
1.865000,3.913000
1.865000,3.912000
1.864000,3.912000
1.864000,3.912000
1.864000,3.912000
1.865000,3.911000
1.865000,3.912000
1.865000,3.912000
1.865000,3.912000
1.865000,3.911000
1.865000,3.911000
1.865000,3.911000
1.865000,3.910000
1.864000,3.910000
1.864000,3.910000
1.864000,3.909000
1.864000,3.908000
1.865000,3.908000
1.865000,3.908000
1.865000,3.907000
1.865000,3.908000
1.865000,3.908000
1.864000,3.908000
1.864000,3.908000
1.864000,3.908000
1.864000,3.908000
1.864000,3.908000
1.864000,3.907000
1.864000,3.907000
1.864000,3.907000
1.864000,3.908000
1.864000,3.909000
1.865000,3.911000
1.865000,3.912000
1.865000,3.913000
1.865000,3.913000
1.865000,3.913000
1.865000,3.913000
1.865000,3.914000
1.866000,3.914000
1.866000,3.914000
1.865000,3.912000
1.865000,3.909000
1.865000,3.905000
1.864000,3.902000
1.864000,3.898000
1.865000,3.896000
1.865000,3.893000
1.865000,3.892000
1.865000,3.890000
1.865000,3.888000
1.865000,3.887000
1.865000,3.887000
1.865000,3.886000
1.865000,3.887000
1.865000,3.887000
1.865000,3.888000
1.865000,3.887000
1.865000,3.887000
1.865000,3.886000
1.865000,3.885000
1.865000,3.884000
1.865000,3.884000
1.865000,3.883000
1.865000,3.882000
1.865000,3.882000
1.864000,3.882000
1.864000,3.881000
1.864000,3.881000
1.864000,3.880000
1.864000,3.880000
1.864000,3.879000
1.864000,3.879000
1.864000,3.878000
1.865000,3.878000
1.865000,3.877000
1.865000,3.877000
1.865000,3.877000
1.865000,3.877000
1.865000,3.877000
1.865000,3.877000
1.864000,3.876000
1.865000,3.876000
1.865000,3.875000
1.865000,3.875000
1.865000,3.875000
1.865000,3.875000
1.865000,3.875000
1.865000,3.875000
1.865000,3.874000
1.865000,3.874000
1.865000,3.874000
1.865000,3.873000
1.865000,3.873000
1.864000,3.874000
1.864000,3.874000
1.864000,3.875000
1.864000,3.875000
1.864000,3.876000
1.864000,3.875000
1.864000,3.875000
1.864000,3.875000
1.865000,3.875000
1.865000,3.876000
1.865000,3.877000
1.865000,3.878000
1.865000,3.880000
1.865000,3.882000
1.865000,3.884000
1.865000,3.886000
1.865000,3.887000
1.865000,3.888000
1.865000,3.887000
1.865000,3.885000
1.865000,3.883000
1.865000,3.879000
1.866000,3.877000
1.867000,3.877000
1.867000,3.882000
1.868000,3.891000
1.869000,3.902000
1.869000,3.914000
1.870000,3.922000
1.870000,3.924000
1.870000,3.927000
1.870000,4.684000
1.869000,6.233000
1.868000,7.972000
1.869000,9.120000
1.870000,9.147000
1.872000,8.424000
1.875000,6.909000
1.878000,5.207000
1.880000,4.100000
1.882000,4.116000
1.884000,4.128000
1.885000,4.140000
1.885000,4.148000
1.886000,4.152000
1.885000,4.147000
1.885000,4.135000
1.884000,4.121000
1.884000,4.110000
1.883000,4.106000
1.883000,4.108000
1.883000,4.108000
1.883000,4.107000
1.882000,4.104000
1.882000,4.110000
1.881000,4.153000
1.881000,4.206000
1.880000,4.234000
1.879000,4.266000
1.878000,4.292000
1.877000,4.276000
1.876000,4.254000
1.875000,4.263000
1.874000,4.263000
1.872000,4.250000
1.871000,4.236000
1.871000,4.211000
1.871000,4.171000
1.871000,4.135000
1.871000,4.103000
1.871000,4.076000
1.871000,4.060000
1.871000,4.050000
1.870000,4.041000
1.871000,4.037000
1.871000,4.029000
1.871000,4.066000
1.873000,4.117000
1.874000,4.312000
1.875000,4.964000
1.876000,7.630000
1.877000,10.147000
1.879000,10.126000
1.879000,9.944000
1.880000,9.292000
1.880000,6.621000
1.880000,4.056000
1.880000,4.438000
1.880000,5.080000
1.880000,5.362000
1.879000,5.591000
1.878000,5.803000
1.878000,5.450000
1.877000,4.783000
1.876000,4.478000
1.875000,4.232000
1.874000,4.002000
1.874000,3.933000
1.874000,3.943000
1.873000,3.958000
1.874000,3.971000
1.873000,3.984000
1.873000,3.984000
1.872000,3.978000
1.872000,3.975000
1.871000,3.976000
1.870000,3.980000
1.870000,3.981000
1.870000,3.982000
1.869000,3.985000
1.869000,4.002000
1.869000,4.042000
1.869000,4.101000
1.868000,4.152000
1.868000,4.183000
1.868000,4.193000
1.868000,4.179000
1.868000,4.148000
1.868000,4.126000
1.869000,4.119000
1.869000,4.115000
1.869000,4.104000
1.868000,4.085000
1.868000,4.061000
1.868000,4.036000
1.868000,4.014000
1.868000,4.001000
1.868000,3.994000
1.868000,3.993000
1.868000,3.994000
1.868000,3.996000
1.868000,3.998000
1.869000,4.000000
1.869000,4.006000
1.869000,4.070000
1.869000,5.216000
1.869000,6.484000
1.869000,6.720000
1.869000,6.794000
1.869000,6.776000
1.869000,5.665000
1.869000,4.425000
1.869000,4.214000
1.869000,4.157000
1.869000,4.131000
1.868000,4.114000
1.868000,4.102000
1.868000,4.093000
1.869000,4.087000
1.869000,4.080000
1.869000,4.073000
1.868000,4.064000
1.868000,4.055000
1.868000,4.045000
1.868000,4.037000
1.868000,4.029000
1.868000,4.023000
1.868000,4.018000
1.868000,4.013000
1.868000,4.007000
1.868000,4.002000
1.868000,3.994000
1.868000,3.985000
1.868000,3.974000
1.868000,3.964000
1.868000,3.953000
1.868000,3.944000
1.868000,3.937000
1.868000,3.931000
1.868000,3.926000
1.869000,3.923000
1.868000,3.921000
1.868000,3.920000
1.868000,3.918000
1.868000,3.917000
1.868000,3.915000
1.868000,3.912000
1.868000,3.908000
1.868000,3.905000
1.868000,3.901000
1.868000,3.898000
1.868000,3.896000
1.868000,3.895000
1.867000,3.895000
1.868000,3.895000
1.868000,3.895000
1.868000,3.895000
1.868000,3.893000
1.868000,3.892000
1.868000,3.890000
1.868000,3.888000
1.868000,3.886000
1.868000,3.884000
1.868000,3.882000
1.869000,3.881000
1.869000,3.880000
1.869000,3.879000
1.868000,3.878000
1.868000,3.878000
1.868000,3.878000
1.868000,3.879000
1.868000,3.879000
1.868000,3.879000
1.867000,3.878000
1.867000,3.877000
1.867000,3.876000
1.867000,3.876000
1.867000,3.875000
1.868000,3.875000
1.867000,3.874000
1.868000,3.874000
1.867000,3.873000
1.867000,3.872000
1.867000,3.871000
1.867000,3.871000
1.867000,3.870000
1.867000,3.869000
1.867000,3.869000
1.867000,3.868000
1.867000,3.867000
1.867000,3.867000
1.867000,3.867000
1.867000,3.867000
1.867000,3.866000
1.867000,3.866000
1.867000,3.866000
1.868000,3.865000
1.867000,3.864000
1.868000,3.864000
1.867000,3.862000
1.867000,3.861000
1.867000,3.860000
1.867000,3.861000
1.867000,3.862000
1.868000,3.865000
1.868000,3.867000
1.868000,3.870000
1.868000,3.872000
1.868000,3.873000
1.868000,3.873000
1.868000,3.874000
1.868000,3.875000
1.868000,3.876000
1.868000,3.877000
1.868000,3.878000
1.868000,3.878000
1.868000,3.880000
1.868000,3.882000
1.868000,3.885000
1.867000,3.888000
1.867000,3.889000
1.867000,3.890000
1.867000,3.890000
1.867000,3.891000
1.867000,3.893000
1.867000,3.895000
1.868000,3.896000
1.868000,3.897000
1.868000,3.898000
1.867000,3.899000
1.867000,3.900000
1.866000,3.901000
1.866000,3.902000
1.866000,3.902000
1.866000,3.902000
1.866000,3.902000
1.866000,3.901000
1.866000,3.899000
1.866000,3.897000
1.866000,3.894000
1.867000,3.892000
1.867000,3.890000
1.867000,3.888000
1.867000,3.886000
1.867000,3.885000
1.867000,3.883000
1.867000,3.881000
1.867000,3.878000
1.868000,3.875000
1.868000,3.871000
1.868000,3.869000
1.867000,3.866000
1.867000,3.864000
1.867000,3.862000
1.867000,3.860000
1.866000,3.858000
1.866000,3.856000
1.867000,3.855000
1.867000,3.854000
1.867000,3.853000
1.867000,3.853000
1.867000,3.853000
1.867000,3.856000
1.867000,3.865000
1.867000,4.286000
1.866000,4.720000
1.866000,4.762000
1.866000,4.796000
1.866000,4.821000
1.867000,4.438000
1.869000,4.051000
1.870000,4.059000
1.872000,4.436000
1.874000,10.175000
1.875000,20.331000
1.877000,26.467080
1.878000,26.467080
1.880000,26.467080
1.882000,26.467080
1.885000,19.864000
1.888000,14.039000
1.891000,10.685000
1.893000,10.586000
1.895000,12.445000
1.896000,13.247000
1.896000,12.076000
1.896000,11.672000
1.895000,10.467000
1.895000,7.546000
1.895000,5.660000
1.895000,5.636000
1.895000,5.652000
1.894000,5.611000
1.893000,5.447000
1.893000,5.182000
1.893000,4.912000
1.893000,4.644000
1.892000,4.502000
1.892000,5.838000
1.892000,8.077000
1.893000,9.068000
1.893000,9.533000
1.893000,9.863000
1.892000,8.435000
1.892000,6.244000
1.891000,7.184000
1.891000,14.488000
1.890000,24.909000
1.889000,26.467080
1.888000,26.467080
1.887000,26.467080
1.886000,26.467080
1.885000,25.146000
1.885000,23.500000
1.884000,23.026000
1.884000,22.054000
1.884000,20.458000
1.883000,19.964000
1.883000,18.531000
1.883000,16.801000
1.883000,16.491000
1.883000,15.017000
1.882000,11.722000
1.882000,8.526000
1.882000,6.246000
1.881000,4.894000
1.881000,4.567000
1.880000,4.549000
1.880000,4.533000
1.880000,4.515000
1.880000,4.499000
1.880000,4.484000
1.880000,4.473000
1.880000,4.462000
1.880000,4.453000
1.879000,4.446000
1.879000,4.441000
1.879000,4.439000
1.879000,4.494000
1.879000,5.898000
1.879000,7.950000
1.879000,8.678000
1.878000,8.859000
1.878000,8.950000
1.878000,7.638000
1.878000,5.628000
1.878000,4.930000
1.878000,4.781000
1.878000,4.712000
1.877000,4.719000
1.877000,4.747000
